freq,mag,phase
1.00000000000000e-003,-1.71452601917534e-010,-3.59999999995263e-004
1.00695555005672e-003,-1.73846062689567e-010,-3.62503998015582e-004
1.01395947979003e-003,-1.76274239250397e-010,-3.65025412719472e-004
1.02101212570719e-003,-1.78733274290158e-010,-3.67564365249547e-004
1.02811382665607e-003,-1.81228953773650e-010,-3.70120977591036e-004
1.03526492384138e-003,-1.83757420391005e-010,-3.72695372577640e-004
1.04246576084112e-003,-1.86323495779558e-010,-3.75287673897437e-004
1.04971668362307e-003,-1.88924286956909e-010,-3.77898006098825e-004
1.05701804056138e-003,-1.91561722577990e-010,-3.80526494596502e-004
1.06437018245336e-003,-1.94234838315335e-010,-3.83173265677498e-004
1.07177346253629e-003,-1.96946527151344e-010,-3.85838446507234e-004
1.07922823650443e-003,-1.99696789086017e-010,-3.88522165135639e-004
1.08673486252606e-003,-2.02484659791887e-010,-3.91224550503301e-004
1.09429370126074e-003,-2.05311103596421e-010,-3.93945732447659e-004
1.10190511587661e-003,-2.08177084827085e-010,-3.96685841709242e-004
1.10956947206785e-003,-2.11083567811347e-010,-3.99445009937953e-004
1.11728713807222e-003,-2.14030552549206e-010,-4.02223369699392e-004
1.12505848468881e-003,-2.17017074713196e-010,-4.05021054481226e-004
1.13288388529580e-003,-2.20046991613182e-010,-4.07838198699600e-004
1.14076371586843e-003,-2.23118374594233e-010,-4.10674937705600e-004
1.14869835499704e-003,-2.26232187983814e-010,-4.13531407791753e-004
1.15668818390529e-003,-2.29391324764325e-010,-4.16407746198573e-004
1.16473358646846e-003,-2.32593856280834e-010,-4.19304091121159e-004
1.17283494923188e-003,-2.35840746860806e-010,-4.22220581715834e-004
1.18099266142953e-003,-2.39132960831709e-010,-4.25157358106828e-004
1.18920711500272e-003,-2.42471462521009e-010,-4.28114561393013e-004
1.19747870461893e-003,-2.45856251928707e-010,-4.31092333654681e-004
1.20580782769076e-003,-2.49286364727334e-010,-4.34090817960369e-004
1.21419488439505e-003,-2.52769515536626e-010,-4.37110158373738e-004
1.22264027769207e-003,-2.56296061081914e-010,-4.40150499960487e-004
1.23114441334492e-003,-2.59872751655467e-010,-4.43211988795331e-004
1.23970769993899e-003,-2.63502480239683e-010,-4.46294771969010e-004
1.24833054890162e-003,-2.67180425197229e-010,-4.49398997595366e-004
1.25701337452183e-003,-2.70908515183040e-010,-4.52524814818450e-004
1.26575659397028e-003,-2.74691571834447e-010,-4.55672373819695e-004
1.27456062731927e-003,-2.78526702169052e-010,-4.58841825825127e-004
1.28342589756291e-003,-2.82413906186853e-010,-4.62033323112632e-004
1.29235283063750e-003,-2.86356076870252e-010,-4.65247019019273e-004
1.30134185544194e-003,-2.90353214219248e-010,-4.68483067948657e-004
1.31039340385837e-003,-2.94406282561308e-010,-4.71741625378352e-004
1.31950791077290e-003,-2.98515281896432e-010,-4.75022847867360e-004
1.32868581409652e-003,-3.02683105207020e-010,-4.78326893063633e-004
1.33792755478612e-003,-3.06907823838138e-010,-4.81653919711656e-004
1.34723357686570e-003,-3.11195223754586e-010,-4.85004087660066e-004
1.35660432744768e-003,-3.15538554664099e-010,-4.88377557869336e-004
1.36604025675440e-003,-3.19942638204009e-010,-4.91774492419508e-004
1.37554181813975e-003,-3.24407474374316e-010,-4.95195054517980e-004
1.38510946811093e-003,-3.28936920484887e-010,-4.98639408507346e-004
1.39474366635041e-003,-3.33528083553323e-010,-5.02107719873294e-004
1.40444487573800e-003,-3.38184820889489e-010,-5.05600155252557e-004
1.41421356237310e-003,-3.42905203838452e-010,-5.09116882440917e-004
1.42405019559708e-003,-3.47692125382613e-010,-5.12658070401267e-004
1.43395524801583e-003,-3.52545585521971e-010,-5.16223889271731e-004
1.44392919552250e-003,-3.57467512911460e-010,-5.19814510373839e-004
1.45397251732032e-003,-3.62457907551080e-010,-5.23430106220752e-004
1.46408569594563e-003,-3.67516769440832e-010,-5.27070850525560e-004
1.47426921729111e-003,-3.72646027235647e-010,-5.30736918209619e-004
1.48452357062906e-003,-3.77849538245393e-010,-5.34428485410961e-004
1.49484924863495e-003,-3.83123445160204e-010,-5.38145729492756e-004
1.50524674741107e-003,-3.88471605289946e-010,-5.41888829051830e-004
1.51571656651041e-003,-3.93895947289553e-010,-5.45657963927250e-004
1.52625920896057e-003,-3.99394542504091e-010,-5.49453315208961e-004
1.53687518128802e-003,-4.04969319588493e-010,-5.53275065246490e-004
1.54756499354240e-003,-4.10622207197694e-010,-5.57123397657705e-004
1.55832915932101e-003,-4.16354169659160e-010,-5.60998497337635e-004
1.56916819579351e-003,-4.22166171300357e-010,-5.64900550467359e-004
1.58008262372676e-003,-4.28058212121286e-010,-5.68829744522946e-004
1.59107296750985e-003,-4.34036078086747e-010,-5.72786268284463e-004
1.60213975517925e-003,-4.40093018904473e-010,-5.76770311845049e-004
1.61328351844426e-003,-4.46236749194197e-010,-5.80782066620042e-004
1.62450479271248e-003,-4.52466304628454e-010,-5.84821725356183e-004
1.63580411711557e-003,-4.58783613862175e-010,-5.88889482140869e-004
1.64718203453516e-003,-4.65185783912963e-010,-5.92985532411484e-004
1.65863909162889e-003,-4.71680529400550e-010,-5.97110072964784e-004
1.67017583885675e-003,-4.78264957342536e-010,-6.01263301966358e-004
1.68179283050744e-003,-4.84940032066388e-010,-6.05445418960143e-004
1.69349062472506e-003,-4.91710575209439e-010,-6.09656624878015e-004
1.70526978353592e-003,-4.98573693789290e-010,-6.13897122049441e-004
1.71713087287552e-003,-5.05534209443274e-010,-6.18167114211201e-004
1.72907446261574e-003,-5.12592122171391e-010,-6.22466806517177e-004
1.74110112659226e-003,-5.19747431973642e-010,-6.26796405548209e-004
1.75321144263208e-003,-5.27002067504959e-010,-6.31156119322020e-004
1.76540599258132e-003,-5.34357957420277e-010,-6.35546157303209e-004
1.77768536233315e-003,-5.41818959029462e-010,-6.39966730413321e-004
1.79005014185596e-003,-5.49382179350115e-010,-6.44418051040972e-004
1.80250092522167e-003,-5.57051475692101e-010,-6.48900333052058e-004
1.81503831063433e-003,-5.64828776710356e-010,-6.53413791800034e-004
1.82766290045881e-003,-5.72711189422479e-010,-6.57958644136251e-004
1.84037530124976e-003,-5.80707392775669e-010,-6.62535108420385e-004
1.85317612378075e-003,-5.88813529460062e-010,-6.67143404530921e-004
1.86606598307363e-003,-5.97032492458057e-010,-6.71783753875722e-004
1.87904549842804e-003,-6.05367174752054e-010,-6.76456379402663e-004
1.89211529345121e-003,-6.13816612014587e-010,-6.81161505610343e-004
1.90527599608789e-003,-6.22385625882989e-010,-6.85899358558874e-004
1.91852823865054e-003,-6.31074216357261e-010,-6.90670165880742e-004
1.93187265784971e-003,-6.39884312092336e-010,-6.95474156791737e-004
1.94530989482459e-003,-6.48816877415682e-010,-7.00311562101976e-004
1.95884059517387e-003,-6.57872876654765e-010,-7.05182614226985e-004
1.97246540898673e-003,-6.67057131446919e-010,-7.10087547198869e-004
1.98618499087409e-003,-6.76367713137211e-010,-7.15026596677552e-004
2.00000000000002e-003,-6.85809443362975e-010,-7.19999999962106e-004
2.01391110011345e-003,-6.95384250779144e-010,-7.25007996002148e-004
2.02791895958007e-003,-7.05091171058252e-010,-7.30050825409318e-004
2.04202425141440e-003,-7.14935025837632e-010,-7.35128730468846e-004
2.05622765331215e-003,-7.24914850789819e-010,-7.40241955151187e-004
2.07052984768277e-003,-7.35032574569747e-010,-7.45390745123746e-004
2.08493152168226e-003,-7.45294947469681e-010,-7.50575347762678e-004
2.09943336724615e-003,-7.55697147852290e-010,-7.55796012164777e-004
2.11403608112278e-003,-7.66245926009841e-010,-7.61052989159441e-004
2.12874036490674e-003,-7.76944174924733e-010,-7.66346531320727e-004
2.14354692507261e-003,-7.87789965942035e-010,-7.71676892979478e-004
2.15845647300887e-003,-7.98786192044147e-010,-7.77044330235555e-004
2.17346972505214e-003,-8.09937674868402e-010,-7.82449100970128e-004
2.18858740252150e-003,-8.21243450087334e-010,-7.87891464858076e-004
2.20381023175324e-003,-8.32707375010811e-010,-7.93371683380460e-004
2.21913894413571e-003,-8.44332342621233e-010,-7.98890019837084e-004
2.23457427614446e-003,-8.56119317246068e-010,-8.04446739359146e-004
2.25011696937764e-003,-8.68070227540249e-010,-8.10042108921980e-004
2.26576777059162e-003,-8.80187002158710e-010,-8.15676397357878e-004
2.28152743173687e-003,-8.92473498411319e-010,-8.21349875369010e-004
2.29739670999409e-003,-9.04932609280477e-010,-8.27062815540428e-004
2.31337636781060e-003,-9.17564334766184e-010,-8.32815492353163e-004
2.32946717293693e-003,-9.30373496505774e-010,-8.38608182197412e-004
2.34566989846378e-003,-9.43361058826714e-010,-8.44441163385818e-004
2.36198532285908e-003,-9.56530879038873e-010,-8.50314716166843e-004
2.37841423000546e-003,-9.69883921469717e-010,-8.56229122738229e-004
2.39495740923788e-003,-9.83421150446714e-010,-8.62184667260559e-004
2.41161565538154e-003,-9.97149316262132e-010,-8.68181635870910e-004
2.42838976879012e-003,-1.01107034757090e-009,-8.74220316696600e-004
2.44528055538416e-003,-1.02518231571810e-009,-8.80300999869031e-004
2.46228882668986e-003,-1.03949486397838e-009,-8.86423977537626e-004
2.47941539987800e-003,-1.05400509936936e-009,-8.92589543883871e-004
2.49666109780325e-003,-1.06871977218329e-009,-8.98797995135443e-004
2.51402674904368e-003,-1.08363598943779e-009,-9.05049629580450e-004
2.53151318794059e-003,-1.09876435873498e-009,-9.11344747581754e-004
2.54912125463855e-003,-1.11410295141993e-009,-9.17683651591406e-004
2.56685179512583e-003,-1.12965369614757e-009,-9.24066646165180e-004
2.58470566127501e-003,-1.14542527186512e-009,-9.30494037977200e-004
2.60268371088389e-003,-1.16141478559016e-009,-9.36966135834679e-004
2.62078680771675e-003,-1.17762705896004e-009,-9.43483250692753e-004
2.63901582154582e-003,-1.19406594928462e-009,-9.50045695669424e-004
2.65737162819305e-003,-1.21073434954630e-009,-9.56653786060599e-004
2.67585510957225e-003,-1.22763515272748e-009,-9.63307839355244e-004
2.69446715373141e-003,-1.24477318046551e-009,-9.70008175250633e-004
2.71320865489537e-003,-1.26214843276037e-009,-9.76755115667713e-004
2.73208051350882e-003,-1.27976765990435e-009,-9.83548984766565e-004
2.75108363627952e-003,-1.29763279055236e-009,-9.90390108961986e-004
2.77021893622188e-003,-1.31574671768682e-009,-9.97278816939164e-004
2.78948733270084e-003,-1.33411522727253e-009,-1.00421543966947e-003
2.80888975147603e-003,-1.35273831930949e-009,-1.01120031042638e-003
2.82842712474622e-003,-1.37162177976250e-009,-1.01823376480144e-003
2.84810039119418e-003,-1.39076753728649e-009,-1.02531614072046e-003
2.86791049603169e-003,-1.41018137784627e-009,-1.03244777845966e-003
2.88785839104503e-003,-1.42986812307918e-009,-1.03962902066211e-003
2.90794503464065e-003,-1.44982680865774e-009,-1.04686021235414e-003
2.92817139189128e-003,-1.47006611352916e-009,-1.05414170096192e-003
2.94853843458224e-003,-1.49058893067585e-009,-1.06147383632817e-003
2.96904714125813e-003,-1.51139622442526e-009,-1.06885697072894e-003
2.98969849726991e-003,-1.53249474506968e-009,-1.07629145889057e-003
3.01049349482217e-003,-1.55388738559150e-009,-1.08377765800672e-003
3.03143313302083e-003,-1.57557800330059e-009,-1.09131592775553e-003
3.05251841792116e-003,-1.59757238416175e-009,-1.09890663031687e-003
3.07375036257606e-003,-1.61987438548486e-009,-1.10655013038980e-003
3.09512998708482e-003,-1.64248786457978e-009,-1.11424679521007e-003
3.11665831864204e-003,-1.66541571442892e-009,-1.12199699456771e-003
3.13833639158704e-003,-1.68866468532454e-009,-1.12980110082490e-003
3.16016524745355e-003,-1.71223574159412e-009,-1.13765948893377e-003
3.18214593501972e-003,-1.73613852651232e-009,-1.14557253645445e-003
3.20427951035853e-003,-1.76037400440661e-009,-1.15354062357321e-003
3.22656703688855e-003,-1.78494796124181e-009,-1.16156413312074e-003
3.24900958542498e-003,-1.80986521865523e-009,-1.16964345059052e-003
3.27160823423117e-003,-1.83513059828423e-009,-1.17777896415733e-003
3.29436406907034e-003,-1.86074602878374e-009,-1.18597106469594e-003
3.31727818325781e-003,-1.88672211775588e-009,-1.19422014579988e-003
3.34035167771352e-003,-1.91305982952815e-009,-1.20252660380030e-003
3.36358566101490e-003,-1.93976495006533e-009,-1.21089083778508e-003
3.38698124945015e-003,-1.96684326533224e-009,-1.21931324961799e-003
3.41053956707187e-003,-1.99429959696620e-009,-1.22779424395794e-003
3.43426174575106e-003,-2.02213876660457e-009,-1.23633422827850e-003
3.45814892523151e-003,-2.05036752453960e-009,-1.24493361288743e-003
3.48220225318454e-003,-2.07898876375370e-009,-1.25359281094640e-003
3.50642288526419e-003,-2.10800923453915e-009,-1.26231223849087e-003
3.53081198516267e-003,-2.13743568718822e-009,-1.27109231445003e-003
3.55537072466633e-003,-2.16727487199317e-009,-1.27993346066697e-003
3.58010028371194e-003,-2.19752775328148e-009,-1.28883610191891e-003
3.60500185044337e-003,-2.22820590298276e-009,-1.29780066593766e-003
3.63007662126869e-003,-2.25931028542447e-009,-1.30682758343012e-003
3.65532580091765e-003,-2.29084765089889e-009,-1.31591728809898e-003
3.68075060249955e-003,-2.32282667835322e-009,-1.32507021666360e-003
3.70635224756154e-003,-2.35525218942481e-009,-1.33428680888095e-003
3.73213196614728e-003,-2.38813093440592e-009,-1.34356750756675e-003
3.75809099685610e-003,-2.42146869926136e-009,-1.35291275861675e-003
3.78423058690244e-003,-2.45527030562848e-009,-1.36232301102815e-003
3.81055199217581e-003,-2.48954443245447e-009,-1.37179871692117e-003
3.83705647730111e-003,-2.52429590137668e-009,-1.38134033156077e-003
3.86374531569944e-003,-2.55953531999725e-009,-1.39094831337854e-003
3.89061978964920e-003,-2.59526365264365e-009,-1.40062312399472e-003
3.91768119034777e-003,-2.63149439990043e-009,-1.41036522824034e-003
3.94493081797350e-003,-2.66822756176758e-009,-1.42017509417962e-003
3.97236998174820e-003,-2.70547471017472e-009,-1.43005319313240e-003
4.00000000000006e-003,-2.74324066675920e-009,-1.43999999969683e-003
4.02782220022694e-003,-2.78153700345061e-009,-1.45001599177213e-003
4.05583791916018e-003,-2.82036468457643e-009,-1.46010165058160e-003
4.08404850282884e-003,-2.85973624639374e-009,-1.47025746069567e-003
4.11245530662433e-003,-2.89965554621241e-009,-1.48048391005527e-003
4.14105969536558e-003,-2.94013415596206e-009,-1.49078148999519e-003
4.16986304336455e-003,-2.98117593295256e-009,-1.50115069526775e-003
4.19886673449234e-003,-3.02279244911352e-009,-1.51159202406654e-003
4.22807216224559e-003,-3.06498852608228e-009,-1.52210597805034e-003
4.25748072981351e-003,-3.10777477146098e-009,-1.53269306236727e-003
4.28709385014524e-003,-3.15115600688698e-009,-1.54335378567901e-003
4.31691294601778e-003,-3.19514669727228e-009,-1.55408866018528e-003
4.34693945010430e-003,-3.23974780694435e-009,-1.56489820164842e-003
4.37717480504303e-003,-3.28497283648776e-009,-1.57578292941819e-003
4.40762046350651e-003,-3.33082950052223e-009,-1.58674336645669e-003
4.43827788827145e-003,-3.37732551366752e-009,-1.59778003936355e-003
4.46914855228895e-003,-3.42447244785323e-009,-1.60889347840115e-003
4.50023393875531e-003,-3.47227608904419e-009,-1.62008421752015e-003
4.53153554118327e-003,-3.52074800917000e-009,-1.63135279438514e-003
4.56305486347377e-003,-3.56989495852295e-009,-1.64269975040046e-003
4.59479341998822e-003,-3.61972850903265e-009,-1.65412563073620e-003
4.62675273562123e-003,-3.67025830397378e-009,-1.66563098435443e-003
4.65893434587390e-003,-3.72149302229356e-009,-1.67721636403553e-003
4.69133979692759e-003,-3.77344327159413e-009,-1.68888232640480e-003
4.72397064571820e-003,-3.82611965947765e-009,-1.70062943195914e-003
4.75682846001096e-003,-3.87952893623639e-009,-1.71245824509404e-003
4.78991481847580e-003,-3.93368556678238e-009,-1.72436933413066e-003
4.82323131076312e-003,-3.98859823006284e-009,-1.73636327134316e-003
4.85677953758027e-003,-4.04427656935244e-009,-1.74844063298616e-003
4.89056111076836e-003,-4.10073119225334e-009,-1.76060199932247e-003
4.92457765337975e-003,-4.15797656367755e-009,-1.77284795465093e-003
4.95883079975603e-003,-4.21602039824484e-009,-1.78517908733450e-003
4.99332219560654e-003,-4.27487233922989e-009,-1.79759598982855e-003
5.02805349808740e-003,-4.33454878019965e-009,-1.81009925870927e-003
5.06302637588121e-003,-4.39505647144641e-009,-1.82268949470238e-003
5.09824250927714e-003,-4.45640794922725e-009,-1.83536730271200e-003
5.13370359025171e-003,-4.51861864278168e-009,-1.84813329184965e-003
5.16941132255006e-003,-4.58169723105691e-009,-1.86098807546359e-003
5.20536742176783e-003,-4.64565239300016e-009,-1.87393227116824e-003
5.24157361543355e-003,-4.71050437948826e-009,-1.88696650087386e-003
5.27803164309167e-003,-4.77626090514097e-009,-1.90009139081645e-003
5.31474325638614e-003,-4.84293450621539e-009,-1.91330757158782e-003
5.35171021914455e-003,-4.91054061195100e-009,-1.92661567816590e-003
5.38893430746286e-003,-4.97908790129503e-009,-1.94001634994523e-003
5.42641730979079e-003,-5.04859276781444e-009,-1.95351023076771e-003
5.46416102701768e-003,-5.11906871209381e-009,-1.96709796895349e-003
5.50216727255908e-003,-5.19052923471768e-009,-1.98078021733215e-003
5.54043787244380e-003,-5.26298494328823e-009,-1.99455763327407e-003
5.57897466540173e-003,-5.33645512435482e-009,-2.00843087872199e-003
5.61777950295210e-003,-5.41094942119215e-009,-2.02240062022284e-003
5.65685424949249e-003,-5.48648326303971e-009,-2.03646752895973e-003
5.69620078238840e-003,-5.56307111480956e-009,-2.05063228078424e-003
5.73582099206342e-003,-5.64072937006865e-009,-2.06489555624885e-003
5.77571678209010e-003,-5.71947056507408e-009,-2.07925804063967e-003
5.81589006928135e-003,-5.79931109339283e-009,-2.09372042400934e-003
5.85634278378262e-003,-5.88026638426441e-009,-2.10828340121022e-003
5.89707686916452e-003,-5.96235186692832e-009,-2.12294767192771e-003
5.93809428251631e-003,-6.04558489927900e-009,-2.13771394071394e-003
5.97939699453987e-003,-6.12997705324609e-009,-2.15258291702158e-003
6.02098698964439e-003,-6.21554857970645e-009,-2.16755531523792e-003
6.06286626604171e-003,-6.30231394357210e-009,-2.18263185471923e-003
6.10503683584236e-003,-6.39029243139244e-009,-2.19781325982528e-003
6.14750072515217e-003,-6.47949657942457e-009,-2.21310025995416e-003
6.19025997416968e-003,-6.56994567421788e-009,-2.22849358957734e-003
6.23331663728412e-003,-6.66165996664922e-009,-2.24399398827493e-003
6.27667278317413e-003,-6.75465295730317e-009,-2.25960220077122e-003
6.32033049490715e-003,-6.84894296840165e-009,-2.27531897697049e-003
6.36429187003948e-003,-6.94455217947646e-009,-2.29114507199300e-003
6.40855902071711e-003,-7.04149312678471e-009,-2.30708124621129e-003
6.45313407377714e-003,-7.13979088284060e-009,-2.32312826528670e-003
6.49801917085002e-003,-7.23945894822871e-009,-2.33928690020618e-003
6.54321646846239e-003,-7.34051564517098e-009,-2.35555792731932e-003
6.58872813814072e-003,-7.44298701050907e-009,-2.37194212837564e-003
6.63455636651567e-003,-7.54688654482757e-009,-2.38844029056215e-003
6.68070335542710e-003,-7.65223642765829e-009,-2.40505320654119e-003
6.72717132202986e-003,-7.75905980286050e-009,-2.42178167448851e-003
6.77396249890036e-003,-7.86737113534626e-009,-2.43862649813158e-003
6.82107913414380e-003,-7.97719549762979e-009,-2.45558848678828e-003
6.86852349150218e-003,-8.08855314058795e-009,-2.47266845540570e-003
6.91629785046307e-003,-8.20146527942509e-009,-2.48986722459937e-003
6.96440450636914e-003,-8.31595312934555e-009,-2.50718562069262e-003
7.01284577052843e-003,-8.43203886988115e-009,-2.52462447575634e-003
7.06162397032539e-003,-8.54974660921864e-009,-2.54218462764892e-003
7.11074144933272e-003,-8.66909563390744e-009,-2.55986692005650e-003
7.16020056742394e-003,-8.79011198078924e-009,-2.57767220253355e-003
7.21000370088680e-003,-8.91281686506839e-009,-2.59560133054364e-003
7.26015324253745e-003,-9.03723728791406e-009,-2.61365516550056e-003
7.31065160183537e-003,-9.16339060722073e-009,-2.63183457480972e-003
7.36150120499916e-003,-9.29130768146745e-009,-2.65014043190979e-003
