Freq.,V(outop)
1.00000000000000e+003,-2.55742897565218e+001,1.09810156225680e-001
1.00695555005672e+003,-2.55742830738817e+001,1.10573909186856e-001
1.01395947979003e+003,-2.55742762979626e+001,1.11342973690964e-001
1.02101212570719e+003,-2.55742694274581e+001,1.12117386666294e-001
1.02811382665607e+003,-2.55742624610545e+001,1.12897185297754e-001
1.03526492384138e+003,-2.55742553974138e+001,1.13682407028489e-001
1.04246576084112e+003,-2.55742482351705e+001,1.14473089561634e-001
1.04971668362307e+003,-2.55742409729520e+001,1.15269270862328e-001
1.05701804056138e+003,-2.55742336093664e+001,1.16070989159386e-001
1.06437018245336e+003,-2.55742261430031e+001,1.16878282947166e-001
1.07177346253629e+003,-2.55742185724103e+001,1.17691190987184e-001
1.07922823650443e+003,-2.55742108961505e+001,1.18509752310474e-001
1.08673486252606e+003,-2.55742031127394e+001,1.19334006218913e-001
1.09429370126074e+003,-2.55741952206810e+001,1.20163992287404e-001
1.10190511587661e+003,-2.55741872184740e+001,1.20999750365844e-001
1.10956947206785e+003,-2.55741791045629e+001,1.21841320580564e-001
1.11728713807222e+003,-2.55741708773944e+001,1.22688743336768e-001
1.12505848468881e+003,-2.55741625353902e+001,1.23542059320229e-001
1.13288388529580e+003,-2.55741540769405e+001,1.24401309499162e-001
1.14076371586843e+003,-2.55741455004304e+001,1.25266535126428e-001
1.14869835499704e+003,-2.55741368042058e+001,1.26137777741192e-001
1.15668818390529e+003,-2.55741279866001e+001,1.27015079171160e-001
1.16473358646846e+003,-2.55741190459170e+001,1.27898481534401e-001
1.17283494923188e+003,-2.55741099804259e+001,1.28788027241325e-001
1.18099266142953e+003,-2.55741007884144e+001,1.29683758997244e-001
1.18920711500272e+003,-2.55740914680893e+001,1.30585719803380e-001
1.19747870461893e+003,-2.55740820176671e+001,1.31493952959889e-001
1.20580782769076e+003,-2.55740724353413e+001,1.32408502067545e-001
1.21419488439505e+003,-2.55740627192612e+001,1.33329411029640e-001
1.22264027769207e+003,-2.55740528675604e+001,1.34256724054360e-001
1.23114441334492e+003,-2.55740428783539e+001,1.35190485656877e-001
1.23970769993899e+003,-2.55740327497150e+001,1.36130740661210e-001
1.24833054890162e+003,-2.55740224797008e+001,1.37077534202668e-001
1.25701337452183e+003,-2.55740120663333e+001,1.38030911729785e-001
1.26575659397028e+003,-2.55740015076262e+001,1.38990919006776e-001
1.27456062731927e+003,-2.55739908015300e+001,1.39957602115122e-001
1.28342589756291e+003,-2.55739799460038e+001,1.40931007456584e-001
1.29235283063750e+003,-2.55739689389520e+001,1.41911181754682e-001
1.30134185544194e+003,-2.55739577782739e+001,1.42898172057513e-001
1.31039340385837e+003,-2.55739464618120e+001,1.43892025739392e-001
1.31950791077290e+003,-2.55739349873924e+001,1.44892790503564e-001
1.32868581409652e+003,-2.55739233528219e+001,1.45900514384485e-001
1.33792755478612e+003,-2.55739115558493e+001,1.46915245749612e-001
1.34723357686570e+003,-2.55738995942247e+001,1.47937033302464e-001
1.35660432744768e+003,-2.55738874656375e+001,1.48965926084161e-001
1.36604025675440e+003,-2.55738751677620e+001,1.50001973476346e-001
1.37554181813975e+003,-2.55738626982371e+001,1.51045225203266e-001
1.38510946811093e+003,-2.55738500546649e+001,1.52095731334145e-001
1.39474366635041e+003,-2.55738372346201e+001,1.53153542285680e-001
1.40444487573800e+003,-2.55738242356411e+001,1.54218708824346e-001
1.41421356237310e+003,-2.55738110552254e+001,1.55291282068743e-001
1.42405019559708e+003,-2.55737976908386e+001,1.56371313492159e-001
1.43395524801583e+003,-2.55737841399187e+001,1.57458854925060e-001
1.44392919552250e+003,-2.55737703998623e+001,1.58553958557399e-001
1.45397251732032e+003,-2.55737564680234e+001,1.59656676941106e-001
1.46408569594563e+003,-2.55737423417365e+001,1.60767062992848e-001
1.47426921729111e+003,-2.55737280182787e+001,1.61885169996089e-001
1.48452357062906e+003,-2.55737134949096e+001,1.63011051604145e-001
1.49484924863495e+003,-2.55736987688249e+001,1.64144761842121e-001
1.50524674741107e+003,-2.55736838372059e+001,1.65286355110150e-001
1.51571656651041e+003,-2.55736686971754e+001,1.66435886185383e-001
1.52625920896057e+003,-2.55736533458366e+001,1.67593410225134e-001
1.53687518128802e+003,-2.55736377802343e+001,1.68758982768971e-001
1.54756499354240e+003,-2.55736219973749e+001,1.69932659741650e-001
1.55832915932101e+003,-2.55736059942340e+001,1.71114497455842e-001
1.56916819579351e+003,-2.55735897677263e+001,1.72304552614443e-001
1.58008262372676e+003,-2.55735733147507e+001,1.73502882313875e-001
1.59107296750985e+003,-2.55735566321375e+001,1.74709544046073e-001
1.60213975517925e+003,-2.55735397166800e+001,1.75924595701643e-001
1.61328351844426e+003,-2.55735225651387e+001,1.77148095572720e-001
1.62450479271248e+003,-2.55735051742065e+001,1.78380102355193e-001
1.63580411711557e+003,-2.55734875405490e+001,1.79620675152122e-001
1.64718203453516e+003,-2.55734696607767e+001,1.80869873476106e-001
1.65863909162889e+003,-2.55734515314630e+001,1.82127757252391e-001
1.67017583885675e+003,-2.55734331491174e+001,1.83394386821342e-001
1.68179283050744e+003,-2.55734145102163e+001,1.84669822941741e-001
1.69349062472506e+003,-2.55733956111639e+001,1.85954126793101e-001
1.70526978353592e+003,-2.55733764483579e+001,1.87247359979554e-001
1.71713087287552e+003,-2.55733570180923e+001,1.88549584531338e-001
1.72907446261574e+003,-2.55733373166388e+001,1.89860862908924e-001
1.74110112659226e+003,-2.55733173402264e+001,1.91181258005725e-001
1.75321144263208e+003,-2.55732970850064e+001,1.92510833150517e-001
1.76540599258132e+003,-2.55732765470940e+001,1.93849652111094e-001
1.77768536233315e+003,-2.55732557225417e+001,1.95197779096879e-001
1.79005014185596e+003,-2.55732346073504e+001,1.96555278762159e-001
1.80250092522167e+003,-2.55732131974709e+001,1.97922216209139e-001
1.81503831063433e+003,-2.55731914887780e+001,1.99298656990671e-001
1.82766290045881e+003,-2.55731694771190e+001,2.00684667114111e-001
1.84037530124976e+003,-2.55731471582495e+001,2.02080313043401e-001
1.85317612378075e+003,-2.55731245278947e+001,2.03485661703243e-001
1.86606598307363e+003,-2.55731015817045e+001,2.04900780481518e-001
1.87904549842804e+003,-2.55730783152673e+001,2.06325737232729e-001
1.89211529345121e+003,-2.55730547241249e+001,2.07760600281439e-001
1.90527599608789e+003,-2.55730308037386e+001,2.09205438424960e-001
1.91852823865054e+003,-2.55730065495184e+001,2.10660320937088e-001
1.93187265784971e+003,-2.55729819568055e+001,2.12125317571098e-001
1.94530989482459e+003,-2.55729570208788e+001,2.13600498563166e-001
1.95884059517387e+003,-2.55729317369489e+001,2.15085934635578e-001
1.97246540898673e+003,-2.55729061001588e+001,2.16581697000076e-001
1.98618499087409e+003,-2.55728801055783e+001,2.18087857361166e-001
2.00000000000002e+003,-2.55728537482235e+001,2.19604487919823e-001
2.01391110011345e+003,-2.55728270230391e+001,2.21131661376600e-001
2.02791895958007e+003,-2.55727999248866e+001,2.22669450934875e-001
2.04202425141440e+003,-2.55727724485598e+001,2.24217930304565e-001
2.05622765331215e+003,-2.55727445887917e+001,2.25777173705746e-001
2.07052984768277e+003,-2.55727163402171e+001,2.27347255871487e-001
2.08493152168226e+003,-2.55726876974170e+001,2.28928252052173e-001
2.09943336724615e+003,-2.55726586549036e+001,2.30520238018792e-001
2.11403608112278e+003,-2.55726292070946e+001,2.32123290066072e-001
2.12874036490674e+003,-2.55725993483231e+001,2.33737485016208e-001
2.14354692507261e+003,-2.55725690728687e+001,2.35362900223115e-001
2.15845647300887e+003,-2.55725383749166e+001,2.36999613575285e-001
2.17346972505214e+003,-2.55725072485704e+001,2.38647703499718e-001
2.18858740252150e+003,-2.55724756878540e+001,2.40307248965653e-001
2.20381023175324e+003,-2.55724436867113e+001,2.41978329488279e-001
2.21913894413571e+003,-2.55724112389826e+001,2.43661025132041e-001
2.23457427614446e+003,-2.55723783384626e+001,2.45355416515511e-001
2.25011696937764e+003,-2.55723449788198e+001,2.47061584813667e-001
2.26576777059162e+003,-2.55723111536474e+001,2.48779611762657e-001
2.28152743173687e+003,-2.55722768564552e+001,2.50509579663514e-001
2.29739670999409e+003,-2.55722420806704e+001,2.52251571386061e-001
2.31337636781060e+003,-2.55722068195894e+001,2.54005670371820e-001
2.32946717293693e+003,-2.55721710664722e+001,2.55771960639839e-001
2.34566989846378e+003,-2.55721348144351e+001,2.57550526788495e-001
2.36198532285908e+003,-2.55720980565316e+001,2.59341454001107e-001
2.37841423000547e+003,-2.55720607856881e+001,2.61144828048608e-001
2.39495740923788e+003,-2.55720229947657e+001,2.62960735294861e-001
2.41161565538155e+003,-2.55719846765001e+001,2.64789262699473e-001
2.42838976879012e+003,-2.55719458235454e+001,2.66630497822791e-001
2.44528055538416e+003,-2.55719064284381e+001,2.68484528829267e-001
2.46228882668986e+003,-2.55718664836201e+001,2.70351444492034e-001
2.47941539987800e+003,-2.55718259814070e+001,2.72231334196468e-001
2.49666109780325e+003,-2.55717849140480e+001,2.74124287945580e-001
2.51402674904368e+003,-2.55717432736444e+001,2.76030396362584e-001
2.53151318794059e+003,-2.55717010522139e+001,2.77949750696421e-001
2.54912125463855e+003,-2.55716582416384e+001,2.79882442824980e-001
2.56685179512584e+003,-2.55716148337132e+001,2.81828565260444e-001
2.58470566127501e+003,-2.55715708201094e+001,2.83788211152802e-001
2.60268371088390e+003,-2.55715261923703e+001,2.85761474294112e-001
2.62078680771676e+003,-2.55714809419360e+001,2.87748449123470e-001
2.63901582154582e+003,-2.55714350601157e+001,2.89749230730775e-001
2.65737162819305e+003,-2.55713885381119e+001,2.91763914861703e-001
2.67585510957225e+003,-2.55713413669893e+001,2.93792597921522e-001
2.69446715373141e+003,-2.55712935376974e+001,2.95835376980102e-001
2.71320865489537e+003,-2.55712450410598e+001,2.97892349776135e-001
2.73208051350882e+003,-2.55711958677778e+001,2.99963614721893e-001
2.75108363627952e+003,-2.55711460083955e+001,3.02049270906880e-001
2.77021893622188e+003,-2.55710954533585e+001,3.04149418103937e-001
2.78948733270084e+003,-2.55710441929658e+001,3.06264156772665e-001
2.80888975147603e+003,-2.55709922173720e+001,3.08393588064245e-001
2.82842712474622e+003,-2.55709395166084e+001,3.10537813826576e-001
2.84810039119418e+003,-2.55708860805750e+001,3.12696936608858e-001
2.86791049603169e+003,-2.55708318989935e+001,3.14871059665233e-001
2.88785839104503e+003,-2.55707769614915e+001,3.17060286961609e-001
2.90794503464066e+003,-2.55707212575150e+001,3.19264723178373e-001
2.92817139189129e+003,-2.55706647763792e+001,3.21484473716496e-001
2.94853843458224e+003,-2.55706075072537e+001,3.23719644702071e-001
2.96904714125813e+003,-2.55705494391486e+001,3.25970342990841e-001
2.98969849726991e+003,-2.55704905609173e+001,3.28236676173324e-001
3.01049349482217e+003,-2.55704308612652e+001,3.30518752579892e-001
3.03143313302083e+003,-2.55703703287479e+001,3.32816681285853e-001
3.05251841792116e+003,-2.55703089517498e+001,3.35130572115935e-001
3.07375036257606e+003,-2.55702467184974e+001,3.37460535649662e-001
3.09512998708482e+003,-2.55701836170526e+001,3.39806683226326e-001
3.11665831864204e+003,-2.55701196353013e+001,3.42169126949838e-001
3.13833639158704e+003,-2.55700547609897e+001,3.44547979694886e-001
3.16016524745355e+003,-2.55699889816600e+001,3.46943355110397e-001
3.18214593501972e+003,-2.55699222846980e+001,3.49355367626097e-001
3.20427951035853e+003,-2.55698546573150e+001,3.51784132457262e-001
3.22656703688855e+003,-2.55697860865345e+001,3.54229765609710e-001
3.24900958542499e+003,-2.55697165592118e+001,3.56692383885668e-001
3.27160823423117e+003,-2.55696460620103e+001,3.59172104888493e-001
3.29436406907034e+003,-2.55695745814101e+001,3.61669047028303e-001
3.31727818325781e+003,-2.55695021037076e+001,3.64183329527466e-001
3.34035167771352e+003,-2.55694286150005e+001,3.66715072425645e-001
3.36358566101490e+003,-2.55693541011917e+001,3.69264396585341e-001
3.38698124945015e+003,-2.55692785480020e+001,3.71831423697932e-001
3.41053956707187e+003,-2.55692019409371e+001,3.74416276288226e-001
3.43426174575106e+003,-2.55691242653037e+001,3.77019077720538e-001
3.45814892523151e+003,-2.55690455062268e+001,3.79639952204939e-001
3.48220225318455e+003,-2.55689656485939e+001,3.82279024801191e-001
3.50642288526419e+003,-2.55688846770953e+001,3.84936421425725e-001
3.53081198516267e+003,-2.55688025762070e+001,3.87612268856867e-001
3.55537072466633e+003,-2.55687193301941e+001,3.90306694740764e-001
3.58010028371194e+003,-2.55686349230906e+001,3.93019827596552e-001
3.60500185044337e+003,-2.55685493387154e+001,3.95751796822768e-001
3.63007662126870e+003,-2.55684625606763e+001,3.98502732703317e-001
3.65532580091766e+003,-2.55683745723259e+001,4.01272766412061e-001
3.68075060249955e+003,-2.55682853568086e+001,4.04062030020315e-001
3.70635224756154e+003,-2.55681948970084e+001,4.06870656501080e-001
3.73213196614728e+003,-2.55681031756099e+001,4.09698779737194e-001
3.75809099685610e+003,-2.55680101750310e+001,4.12546534525128e-001
3.78423058690244e+003,-2.55679158774302e+001,4.15414056581366e-001
3.81055199217581e+003,-2.55678202647494e+001,4.18301482549991e-001
3.83705647730112e+003,-2.55677233186623e+001,4.21208950007161e-001
3.86374531569944e+003,-2.55676250205901e+001,4.24136597467885e-001
3.89061978964920e+003,-2.55675253516977e+001,4.27084564392103e-001
3.91768119034777e+003,-2.55674242928999e+001,4.30052991191251e-001
3.94493081797350e+003,-2.55673218248215e+001,4.33042019233228e-001
3.97236998174820e+003,-2.55672179278350e+001,4.36051790850085e-001
4.00000000000006e+003,-2.55671125820299e+001,4.39082449343356e-001
4.02782220022694e+003,-2.55670057672327e+001,4.42134138991228e-001
4.05583791916018e+003,-2.55668974629804e+001,4.45207005054093e-001
4.08404850282884e+003,-2.55667876485173e+001,4.48301193780987e-001
4.11245530662433e+003,-2.55666763028114e+001,4.51416852416709e-001
4.14105969536558e+003,-2.55665634045498e+001,4.54554129208270e-001
4.16986304336455e+003,-2.55664489320881e+001,4.57713173409789e-001
4.19886673449234e+003,-2.55663328635165e+001,4.60894135291435e-001
4.22807216224559e+003,-2.55662151765996e+001,4.64097166144117e-001
4.25748072981351e+003,-2.55660958488094e+001,4.67322418287318e-001
4.28709385014524e+003,-2.55659748572836e+001,4.70570045074389e-001
4.31691294601778e+003,-2.55658521788600e+001,4.73840200900761e-001
4.34693945010430e+003,-2.55657277900437e+001,4.77133041209449e-001
4.37717480504303e+003,-2.55656016670237e+001,4.80448722498712e-001
4.40762046350651e+003,-2.55654737856549e+001,4.83787402328274e-001
4.43827788827145e+003,-2.55653441214459e+001,4.87149239325821e-001
4.46914855228895e+003,-2.55652126495884e+001,4.90534393195270e-001
4.50023393875531e+003,-2.55650793449092e+001,4.93943024721882e-001
4.53153554118327e+003,-2.55649441818847e+001,4.97375295779971e-001
4.56305486347377e+003,-2.55648071346523e+001,5.00831369340562e-001
4.59479341998822e+003,-2.55646681769867e+001,5.04311409477515e-001
4.62675273562123e+003,-2.55645272822777e+001,5.07815581374009e-001
4.65893434587390e+003,-2.55643844235776e+001,5.11344051331665e-001
4.69133979692759e+003,-2.55642395735451e+001,5.14896986775543e-001
4.72397064571820e+003,-2.55640927044550e+001,5.18474556261978e-001
4.75682846001096e+003,-2.55639437882224e+001,5.22076929486892e-001
4.78991481847580e+003,-2.55637927963465e+001,5.25704277290949e-001
4.82323131076312e+003,-2.55636396999385e+001,5.29356771668144e-001
4.85677953758027e+003,-2.55634844697227e+001,5.33034585773395e-001
4.89056111076836e+003,-2.55633270759856e+001,5.36737893927951e-001
4.92457765337975e+003,-2.55631674886389e+001,5.40466871629637e-001
4.95883079975603e+003,-2.55630056771535e+001,5.44221695557654e-001
4.99332219560653e+003,-2.55628416105889e+001,5.48002543581585e-001
5.02805349808740e+003,-2.55626752575588e+001,5.51809594767516e-001
5.06302637588121e+003,-2.55625065862606e+001,5.55643029387155e-001
5.09824250927713e+003,-2.55623355644475e+001,5.59503028924353e-001
5.13370359025170e+003,-2.55621621594122e+001,5.63389776082237e-001
5.16941132255006e+003,-2.55619863380062e+001,5.67303454791978e-001
5.20536742176782e+003,-2.55618080666162e+001,5.71244250219513e-001
5.24157361543354e+003,-2.55616273111710e+001,5.75212348773973e-001
5.27803164309167e+003,-2.55614440371078e+001,5.79207938114042e-001
5.31474325638614e+003,-2.55612582094117e+001,5.83231207157858e-001
5.35171021914454e+003,-2.55610697925673e+001,5.87282346088752e-001
5.38893430746286e+003,-2.55608787505652e+001,5.91361546363754e-001
5.42641730979078e+003,-2.55606850469004e+001,5.95469000721706e-001
5.46416102701768e+003,-2.55604886445664e+001,5.99604903191028e-001
5.50216727255907e+003,-2.55602895060355e+001,6.03769449097175e-001
5.54043787244380e+003,-2.55600875932713e+001,6.07962835071376e-001
5.57897466540172e+003,-2.55598828677109e+001,6.12185259058182e-001
5.61777950295209e+003,-2.55596752902372e+001,6.16436920322432e-001
5.65685424949248e+003,-2.55594648212201e+001,6.20718019459634e-001
5.69620078238839e+003,-2.55592514204546e+001,6.25028758401383e-001
5.73582099206341e+003,-2.55590350472008e+001,6.29369340425814e-001
5.77571678209009e+003,-2.55588156601443e+001,6.33739970164120e-001
5.81589006928135e+003,-2.55585932173983e+001,6.38140853609182e-001
5.85634278378261e+003,-2.55583676764917e+001,6.42572198123591e-001
5.89707686916451e+003,-2.55581389943884e+001,6.47034212449202e-001
5.93809428251631e+003,-2.55579071274355e+001,6.51527106713251e-001
5.97939699453987e+003,-2.55576720313840e+001,6.56051092437912e-001
6.02098698964438e+003,-2.55574336613579e+001,6.60606382547676e-001
6.06286626604171e+003,-2.55571919718921e+001,6.65193191379943e-001
6.10503683584235e+003,-2.55569469168679e+001,6.69811734690473e-001
6.14750072515217e+003,-2.55566984495463e+001,6.74462229664023e-001
6.19025997416968e+003,-2.55564465225171e+001,6.79144894920532e-001
6.23331663728412e+003,-2.55561910877398e+001,6.83859950526146e-001
6.27667278317413e+003,-2.55559320964997e+001,6.88607617999927e-001
6.32033049490714e+003,-2.55556694994166e+001,6.93388120323245e-001
6.36429187003947e+003,-2.55554032464085e+001,6.98201681946799e-001
6.40855902071710e+003,-2.55551332867320e+001,7.03048528802010e-001
6.45313407377714e+003,-2.55548595689039e+001,7.07928888305663e-001
6.49801917085001e+003,-2.55545820407813e+001,7.12842989373550e-001
6.54321646846238e+003,-2.55543006494593e+001,7.17791062423956e-001
6.58872813814071e+003,-2.55540153413082e+001,7.22773339388875e-001
6.63455636651566e+003,-2.55537260619823e+001,7.27790053723733e-001
6.68070335542709e+003,-2.55534327563623e+001,7.32841440413504e-001
6.72717132202985e+003,-2.55531353685733e+001,7.37927735982880e-001
6.77396249890035e+003,-2.55528338419792e+001,7.43049178505373e-001
6.82107913414379e+003,-2.55525281191532e+001,7.48206007610925e-001
6.86852349150217e+003,-2.55522181418813e+001,7.53398464495591e-001
6.91629785046306e+003,-2.55519038511518e+001,7.58626791930228e-001
6.96440450636913e+003,-2.55515851871349e+001,7.63891234268809e-001
7.01284577052842e+003,-2.55512620891653e+001,7.69192037456836e-001
7.06162397032538e+003,-2.55509344957622e+001,7.74529449042082e-001
7.11074144933271e+003,-2.55506023445767e+001,7.79903718181050e-001
7.16020056742393e+003,-2.55502655724260e+001,7.85315095650363e-001
7.21000370088679e+003,-2.55499241152262e+001,7.90763833852545e-001
7.26015324253744e+003,-2.55495779080462e+001,7.96250186828800e-001
7.31065160183536e+003,-2.55492268850335e+001,8.01774410264114e-001
7.36150120499915e+003,-2.55488709794383e+001,8.07336761498441e-001
7.41270449512312e+003,-2.55485101236024e+001,8.12937499535651e-001
7.46426393229462e+003,-2.55481442489187e+001,8.18576885050859e-001
7.51618199371225e+003,-2.55477732858553e+001,8.24255180401473e-001
7.56846117380493e+003,-2.55473971639014e+001,8.29972649633714e-001
